#          pH	    reaction	          Al	        S(6)	  Al(OH)3(a)	d_Al(OH)3(a)	Basaluminite	d_Basaluminite	   Jurbanite	 d_Jurbanite	     Alunite	   d_Alunite	si_Al(OH)3(a)	si_Basaluminite	si_Jurbanite	  si_Alunite	
     6.53663	  1.0000e-07	  5.3023e-07	  1.0000e-02	  0.0000e+00	  0.0000e+00	  1.0000e+01	 -1.3256e-07	  0.0000e+00	  0.0000e+00	  0.0000e+00	  0.0000e+00	     -1.2217	      0.0000	     -2.8050	   -999.9990	
     6.50757	  2.0000e-07	  4.9909e-07	  1.0000e-02	  0.0000e+00	  0.0000e+00	  1.0000e+01	 -1.2475e-07	  0.0000e+00	  0.0000e+00	  0.0000e+00	  0.0000e+00	     -1.2362	      0.0000	     -2.7614	   -999.9990	
     6.47781	  3.0000e-07	  4.7098e-07	  1.0000e-02	  0.0000e+00	  0.0000e+00	  1.0000e+01	 -1.1772e-07	  0.0000e+00	  0.0000e+00	  0.0000e+00	  0.0000e+00	     -1.2511	      0.0000	     -2.7168	   -999.9990	
     6.44754	  4.0000e-07	  4.4601e-07	  1.0000e-02	  0.0000e+00	  0.0000e+00	  1.0000e+01	 -1.1148e-07	  0.0000e+00	  0.0000e+00	  0.0000e+00	  0.0000e+00	     -1.2662	      0.0000	     -2.6714	   -999.9990	
     6.41696	  5.0000e-07	  4.2420e-07	  1.0000e-02	  0.0000e+00	  0.0000e+00	  1.0000e+01	 -1.0603e-07	  0.0000e+00	  0.0000e+00	  0.0000e+00	  0.0000e+00	     -1.2815	     -0.0000	     -2.6255	   -999.9990	
     6.26707	  1.0000e-06	  3.5929e-07	  1.0000e-02	  0.0000e+00	  0.0000e+00	  1.0000e+01	 -8.9797e-08	  0.0000e+00	  0.0000e+00	  0.0000e+00	  0.0000e+00	     -1.3564	     -0.0000	     -2.4007	   -999.9990	
     6.02863	  2.0000e-06	  3.7406e-07	  1.0000e-02	  0.0000e+00	  0.0000e+00	  1.0000e+01	 -9.3490e-08	  0.0000e+00	  0.0000e+00	  0.0000e+00	  0.0000e+00	     -1.4757	     -0.0000	     -2.0430	   -999.9990	
     5.86937	  3.0000e-06	  4.7291e-07	  1.0000e-02	  0.0000e+00	  0.0000e+00	  1.0000e+01	 -1.1820e-07	  0.0000e+00	  0.0000e+00	  0.0000e+00	  0.0000e+00	     -1.5553	     -0.0000	     -1.8041	   -999.9990	
     5.75732	  4.0000e-06	  6.1128e-07	  1.0000e-02	  0.0000e+00	  0.0000e+00	  1.0000e+01	 -1.5280e-07	  0.0000e+00	  0.0000e+00	  0.0000e+00	  0.0000e+00	     -1.6113	     -0.0000	     -1.6361	   -999.9990	
     5.67325	  5.0000e-06	  7.7617e-07	  1.0000e-02	  0.0000e+00	  0.0000e+00	  1.0000e+01	 -1.9402e-07	  0.0000e+00	  0.0000e+00	  0.0000e+00	  0.0000e+00	     -1.6533	      0.0000	     -1.5100	   -999.9990	
     5.43521	  1.0000e-05	  1.8474e-06	  1.0000e-02	  0.0000e+00	  0.0000e+00	  1.0000e+01	 -4.6182e-07	  0.0000e+00	  0.0000e+00	  0.0000e+00	  0.0000e+00	     -1.7724	      0.0000	     -1.1529	   -999.9990	
     5.23304	  2.0000e-05	  4.6016e-06	  1.0001e-02	  0.0000e+00	  0.0000e+00	  1.0000e+01	 -1.1504e-06	  0.0000e+00	  0.0000e+00	  0.0000e+00	  0.0000e+00	     -1.8734	      0.0000	     -0.8497	   -999.9990	
     5.12838	  3.0000e-05	  7.7167e-06	  1.0002e-02	  0.0000e+00	  0.0000e+00	  1.0000e+01	 -1.9291e-06	  0.0000e+00	  0.0000e+00	  0.0000e+00	  0.0000e+00	     -1.9257	      0.0000	     -0.6928	   -999.9990	
     5.05886	  4.0000e-05	  1.1013e-05	  1.0003e-02	  0.0000e+00	  0.0000e+00	  1.0000e+01	 -2.7532e-06	  0.0000e+00	  0.0000e+00	  0.0000e+00	  0.0000e+00	     -1.9605	      0.0000	     -0.5886	   -999.9990	
     5.00718	  5.0000e-05	  1.4420e-05	  1.0004e-02	  0.0000e+00	  0.0000e+00	  1.0000e+01	 -3.6050e-06	  0.0000e+00	  0.0000e+00	  0.0000e+00	  0.0000e+00	     -1.9863	     -0.0000	     -0.5111	   -999.9990	
     4.85638	  1.0000e-04	  3.2289e-05	  1.0008e-02	  0.0000e+00	  0.0000e+00	  1.0000e+01	 -8.0722e-06	  0.0000e+00	  0.0000e+00	  0.0000e+00	  0.0000e+00	     -2.0616	     -0.0000	     -0.2853	   -999.9990	
     4.71607	  2.0000e-04	  6.9644e-05	  1.0017e-02	  0.0000e+00	  0.0000e+00	  1.0000e+01	 -1.7411e-05	  0.0000e+00	  0.0000e+00	  0.0000e+00	  0.0000e+00	     -2.1315	      0.0000	     -0.0755	   -999.9990	
     4.63725	  3.0000e-04	  1.0782e-04	  1.0027e-02	  0.0000e+00	  0.0000e+00	  1.0000e+01	 -2.6954e-05	  0.0000e+00	  0.0000e+00	  0.0000e+00	  0.0000e+00	     -2.1707	      0.0000	      0.0421	   -999.9990	
      4.5824	  4.0000e-04	  1.4638e-04	  1.0037e-02	  0.0000e+00	  0.0000e+00	  1.0000e+01	 -3.6594e-05	  0.0000e+00	  0.0000e+00	  0.0000e+00	  0.0000e+00	     -2.1979	      0.0000	      0.1237	   -999.9990	
     4.54034	  5.0000e-04	  1.8517e-04	  1.0046e-02	  0.0000e+00	  0.0000e+00	  1.0000e+01	 -4.6294e-05	  0.0000e+00	  0.0000e+00	  0.0000e+00	  0.0000e+00	     -2.2187	     -0.0000	      0.1861	   -999.9990	
     4.41169	  1.0000e-03	  3.8092e-04	  1.0095e-02	  0.0000e+00	  0.0000e+00	  9.9999e+00	 -9.5231e-05	  0.0000e+00	  0.0000e+00	  0.0000e+00	  0.0000e+00	     -2.2819	     -0.0000	      0.3757	   -999.9990	
     4.33737	  1.5000e-03	  5.7805e-04	  1.0144e-02	  0.0000e+00	  0.0000e+00	  9.9999e+00	 -1.4451e-04	  0.0000e+00	  0.0000e+00	  0.0000e+00	  0.0000e+00	     -2.3179	      0.0000	      0.4838	   -999.9990	
     4.28486	  2.0000e-03	  7.7584e-04	  1.0194e-02	  0.0000e+00	  0.0000e+00	  9.9998e+00	 -1.9397e-04	  0.0000e+00	  0.0000e+00	  0.0000e+00	  0.0000e+00	     -2.3431	      0.0000	      0.5593	   -999.9990	
     4.24418	  2.5000e-03	  9.7404e-04	  1.0243e-02	  0.0000e+00	  0.0000e+00	  9.9998e+00	 -2.4352e-04	  0.0000e+00	  0.0000e+00	  0.0000e+00	  0.0000e+00	     -2.3623	     -0.0000	      0.6169	   -999.9990	
     4.21094	  3.0000e-03	  1.1725e-03	  1.0293e-02	  0.0000e+00	  0.0000e+00	  9.9997e+00	 -2.9314e-04	  0.0000e+00	  0.0000e+00	  0.0000e+00	  0.0000e+00	     -2.3778	     -0.0000	      0.6635	   -999.9990	
     4.18281	  3.5000e-03	  1.3712e-03	  1.0342e-02	  0.0000e+00	  0.0000e+00	  9.9997e+00	 -3.4282e-04	  0.0000e+00	  0.0000e+00	  0.0000e+00	  0.0000e+00	     -2.3908	      0.0000	      0.7024	   -999.9990	
     4.15842	  4.0000e-03	  1.5700e-03	  1.0392e-02	  0.0000e+00	  0.0000e+00	  9.9996e+00	 -3.9253e-04	  0.0000e+00	  0.0000e+00	  0.0000e+00	  0.0000e+00	     -2.4019	      0.0000	      0.7357	   -999.9990	
     4.13687	  4.5000e-03	  1.7690e-03	  1.0441e-02	  0.0000e+00	  0.0000e+00	  9.9996e+00	 -4.4228e-04	  0.0000e+00	  0.0000e+00	  0.0000e+00	  0.0000e+00	     -2.4116	     -0.0000	      0.7647	   -999.9990	
     4.11756	  5.0000e-03	  1.9681e-03	  1.0491e-02	  0.0000e+00	  0.0000e+00	  9.9995e+00	 -4.9206e-04	  0.0000e+00	  0.0000e+00	  0.0000e+00	  0.0000e+00	     -2.4201	     -0.0000	      0.7904	   -999.9990	
     4.10007	  5.5000e-03	  2.1672e-03	  1.0541e-02	  0.0000e+00	  0.0000e+00	  9.9995e+00	 -5.4186e-04	  0.0000e+00	  0.0000e+00	  0.0000e+00	  0.0000e+00	     -2.4278	      0.0000	      0.8134	   -999.9990	
     4.08407	  6.0000e-03	  2.3665e-03	  1.0591e-02	  0.0000e+00	  0.0000e+00	  9.9994e+00	 -5.9168e-04	  0.0000e+00	  0.0000e+00	  0.0000e+00	  0.0000e+00	     -2.4347	     -0.0000	      0.8342	   -999.9990	
     4.06933	  6.5000e-03	  2.5658e-03	  1.0640e-02	  0.0000e+00	  0.0000e+00	  9.9994e+00	 -6.4151e-04	  0.0000e+00	  0.0000e+00	  0.0000e+00	  0.0000e+00	     -2.4410	     -0.0000	      0.8531	   -999.9990	
     4.05566	  7.0000e-03	  2.7651e-03	  1.0690e-02	  0.0000e+00	  0.0000e+00	  9.9993e+00	 -6.9136e-04	  0.0000e+00	  0.0000e+00	  0.0000e+00	  0.0000e+00	     -2.4468	     -0.0000	      0.8704	   -999.9990	
     4.04292	  7.5000e-03	  2.9645e-03	  1.0740e-02	  0.0000e+00	  0.0000e+00	  9.9993e+00	 -7.4123e-04	  0.0000e+00	  0.0000e+00	  0.0000e+00	  0.0000e+00	     -2.4521	     -0.0000	      0.8864	   -999.9990	
     4.03098	  8.0000e-03	  3.1640e-03	  1.0790e-02	  0.0000e+00	  0.0000e+00	  9.9992e+00	 -7.9110e-04	  0.0000e+00	  0.0000e+00	  0.0000e+00	  0.0000e+00	     -2.4570	      0.0000	      0.9011	   -999.9990	
     4.01975	  8.5000e-03	  3.3635e-03	  1.0839e-02	  0.0000e+00	  0.0000e+00	  9.9992e+00	 -8.4099e-04	  0.0000e+00	  0.0000e+00	  0.0000e+00	  0.0000e+00	     -2.4616	      0.0000	      0.9149	   -999.9990	
     4.00915	  9.0000e-03	  3.5630e-03	  1.0889e-02	  0.0000e+00	  0.0000e+00	  9.9991e+00	 -8.9089e-04	  0.0000e+00	  0.0000e+00	  0.0000e+00	  0.0000e+00	     -2.4659	      0.0000	      0.9277	   -999.9990	
     3.99911	  9.5000e-03	  3.7625e-03	  1.0939e-02	  0.0000e+00	  0.0000e+00	  9.9991e+00	 -9.4079e-04	  0.0000e+00	  0.0000e+00	  0.0000e+00	  0.0000e+00	     -2.4699	      0.0000	      0.9397	   -999.9990	
     3.98957	  1.0000e-02	  3.9621e-03	  1.0989e-02	  0.0000e+00	  0.0000e+00	  9.9990e+00	 -9.9071e-04	  0.0000e+00	  0.0000e+00	  0.0000e+00	  0.0000e+00	     -2.4736	      0.0000	      0.9509	   -999.9990	
     3.94798	  1.2500e-02	  4.9605e-03	  1.1238e-02	  0.0000e+00	  0.0000e+00	  9.9988e+00	 -1.2404e-03	  0.0000e+00	  0.0000e+00	  0.0000e+00	  0.0000e+00	     -2.4895	     -0.0000	      0.9984	   -999.9990	
     3.91391	  1.5000e-02	  5.9593e-03	  1.1487e-02	  0.0000e+00	  0.0000e+00	  9.9985e+00	 -1.4902e-03	  0.0000e+00	  0.0000e+00	  0.0000e+00	  0.0000e+00	     -2.5018	      0.0000	      1.0353	   -999.9990	
     3.88509	  1.7500e-02	  6.9584e-03	  1.1736e-02	  0.0000e+00	  0.0000e+00	  9.9983e+00	 -1.7401e-03	  0.0000e+00	  0.0000e+00	  0.0000e+00	  0.0000e+00	     -2.5116	      0.0000	      1.0649	   -999.9990	
     3.86018	  2.0000e-02	  7.9578e-03	  1.1986e-02	  0.0000e+00	  0.0000e+00	  9.9980e+00	 -1.9902e-03	  0.0000e+00	  0.0000e+00	  0.0000e+00	  0.0000e+00	     -2.5198	      0.0000	      1.0893	   -999.9990	
     3.83829	  2.2500e-02	  8.9573e-03	  1.2235e-02	  0.0000e+00	  0.0000e+00	  9.9978e+00	 -2.2402e-03	  0.0000e+00	  0.0000e+00	  0.0000e+00	  0.0000e+00	     -2.5266	      0.0000	      1.1099	   -999.9990	
     3.81881	  2.5000e-02	  9.9570e-03	  1.2485e-02	  0.0000e+00	  0.0000e+00	  9.9975e+00	 -2.4904e-03	  0.0000e+00	  0.0000e+00	  0.0000e+00	  0.0000e+00	     -2.5325	      0.0000	      1.1275	   -999.9990	
     3.80131	  2.7500e-02	  1.0957e-02	  1.2734e-02	  0.0000e+00	  0.0000e+00	  9.9973e+00	 -2.7405e-03	  0.0000e+00	  0.0000e+00	  0.0000e+00	  0.0000e+00	     -2.5376	     -0.0000	      1.1428	   -999.9990	
     3.78545	  3.0000e-02	  1.1957e-02	  1.2984e-02	  0.0000e+00	  0.0000e+00	  9.9970e+00	 -2.9908e-03	  0.0000e+00	  0.0000e+00	  0.0000e+00	  0.0000e+00	     -2.5421	      0.0000	      1.1563	   -999.9990	
     3.77099	  3.2500e-02	  1.2956e-02	  1.3233e-02	  0.0000e+00	  0.0000e+00	  9.9968e+00	 -3.2410e-03	  0.0000e+00	  0.0000e+00	  0.0000e+00	  0.0000e+00	     -2.5461	      0.0000	      1.1683	   -999.9990	
     3.75772	  3.5000e-02	  1.3956e-02	  1.3483e-02	  0.0000e+00	  0.0000e+00	  9.9965e+00	 -3.4913e-03	  0.0000e+00	  0.0000e+00	  0.0000e+00	  0.0000e+00	     -2.5497	      0.0000	      1.1791	   -999.9990	
     3.74549	  3.7500e-02	  1.4956e-02	  1.3732e-02	  0.0000e+00	  0.0000e+00	  9.9963e+00	 -3.7415e-03	  0.0000e+00	  0.0000e+00	  0.0000e+00	  0.0000e+00	     -2.5529	     -0.0000	      1.1888	   -999.9990	
     3.73415	  4.0000e-02	  1.5956e-02	  1.3982e-02	  0.0000e+00	  0.0000e+00	  9.9960e+00	 -3.9918e-03	  0.0000e+00	  0.0000e+00	  0.0000e+00	  0.0000e+00	     -2.5559	      0.0000	      1.1978	   -999.9990	
     3.72361	  4.2500e-02	  1.6956e-02	  1.4231e-02	  0.0000e+00	  0.0000e+00	  9.9958e+00	 -4.2421e-03	  0.0000e+00	  0.0000e+00	  0.0000e+00	  0.0000e+00	     -2.5587	      0.0000	      1.2060	   -999.9990	
     3.71377	  4.5000e-02	  1.7955e-02	  1.4481e-02	  0.0000e+00	  0.0000e+00	  9.9955e+00	 -4.4925e-03	  0.0000e+00	  0.0000e+00	  0.0000e+00	  0.0000e+00	     -2.5612	     -0.0000	      1.2137	   -999.9990	
     3.70455	  4.7500e-02	  1.8955e-02	  1.4730e-02	  0.0000e+00	  0.0000e+00	  9.9953e+00	 -4.7428e-03	  0.0000e+00	  0.0000e+00	  0.0000e+00	  0.0000e+00	     -2.5636	      0.0000	      1.2208	   -999.9990	
     3.69589	  5.0000e-02	  1.9955e-02	  1.4980e-02	  0.0000e+00	  0.0000e+00	  9.9950e+00	 -4.9931e-03	  0.0000e+00	  0.0000e+00	  0.0000e+00	  0.0000e+00	     -2.5659	     -0.0000	      1.2276	   -999.9990	
