#          pH	    reaction	          Al	        S(6)	  Al(OH)3(a)	d_Al(OH)3(a)	Basaluminite	d_Basaluminite	   Jurbanite	 d_Jurbanite	     Alunite	   d_Alunite	si_Al(OH)3(a)	si_Basaluminite	si_Jurbanite	  si_Alunite	
     6.38367	  1.0000e-07	  8.0276e-06	  1.0000e-02	  1.0000e+01	 -8.0276e-06	  0.0000e+00	  0.0000e+00	  0.0000e+00	  0.0000e+00	  0.0000e+00	  0.0000e+00	      0.0000	      5.1926	     -1.2774	   -999.9990	
     6.37923	  2.0000e-07	  8.0204e-06	  1.0000e-02	  1.0000e+01	 -8.0203e-06	  0.0000e+00	  0.0000e+00	  0.0000e+00	  0.0000e+00	  0.0000e+00	  0.0000e+00	     -0.0000	      5.2014	     -1.2686	   -999.9990	
     6.37482	  3.0000e-07	  8.0142e-06	  1.0000e-02	  1.0000e+01	 -8.0141e-06	  0.0000e+00	  0.0000e+00	  0.0000e+00	  0.0000e+00	  0.0000e+00	  0.0000e+00	      0.0000	      5.2103	     -1.2597	   -999.9990	
     6.37042	  4.0000e-07	  8.0090e-06	  1.0000e-02	  1.0000e+01	 -8.0089e-06	  0.0000e+00	  0.0000e+00	  0.0000e+00	  0.0000e+00	  0.0000e+00	  0.0000e+00	      0.0000	      5.2191	     -1.2509	   -999.9990	
     6.36604	  5.0000e-07	  8.0046e-06	  1.0000e-02	  1.0000e+01	 -8.0045e-06	  0.0000e+00	  0.0000e+00	  0.0000e+00	  0.0000e+00	  0.0000e+00	  0.0000e+00	      0.0000	      5.2278	     -1.2422	   -999.9990	
     6.34448	  1.0000e-06	  7.9969e-06	  1.0000e-02	  1.0000e+01	 -7.9968e-06	  0.0000e+00	  0.0000e+00	  0.0000e+00	  0.0000e+00	  0.0000e+00	  0.0000e+00	      0.0000	      5.2710	     -1.1990	   -999.9990	
     6.30317	  2.0000e-06	  8.0469e-06	  1.0000e-02	  1.0000e+01	 -8.0468e-06	  0.0000e+00	  0.0000e+00	  0.0000e+00	  0.0000e+00	  0.0000e+00	  0.0000e+00	     -0.0000	      5.3536	     -1.1164	   -999.9990	
      6.2646	  3.0000e-06	  8.1743e-06	  1.0000e-02	  1.0000e+01	 -8.1742e-06	  0.0000e+00	  0.0000e+00	  0.0000e+00	  0.0000e+00	  0.0000e+00	  0.0000e+00	      0.0000	      5.4307	     -1.0393	   -999.9990	
     6.22893	  4.0000e-06	  8.3668e-06	  1.0000e-02	  1.0000e+01	 -8.3667e-06	  0.0000e+00	  0.0000e+00	  0.0000e+00	  0.0000e+00	  0.0000e+00	  0.0000e+00	     -0.0000	      5.5020	     -0.9680	   -999.9990	
     6.19613	  5.0000e-06	  8.6125e-06	  1.0000e-02	  1.0000e+01	 -8.6124e-06	  0.0000e+00	  0.0000e+00	  0.0000e+00	  0.0000e+00	  0.0000e+00	  0.0000e+00	     -0.0000	      5.5676	     -0.9024	   -999.9990	
     6.06887	  1.0000e-05	  1.0325e-05	  1.0000e-02	  1.0000e+01	 -1.0325e-05	  0.0000e+00	  0.0000e+00	  0.0000e+00	  0.0000e+00	  0.0000e+00	  0.0000e+00	     -0.0000	      5.8221	     -0.6479	   -999.9990	
     5.92163	  2.0000e-05	  1.4553e-05	  1.0000e-02	  1.0000e+01	 -1.4553e-05	  0.0000e+00	  0.0000e+00	  0.0000e+00	  0.0000e+00	  0.0000e+00	  0.0000e+00	     -0.0000	      6.1166	     -0.3534	   -999.9990	
     5.83588	  3.0000e-05	  1.8915e-05	  1.0000e-02	  1.0000e+01	 -1.8915e-05	  0.0000e+00	  0.0000e+00	  0.0000e+00	  0.0000e+00	  0.0000e+00	  0.0000e+00	      0.0000	      6.2880	     -0.1820	   -999.9990	
     5.77693	  4.0000e-05	  2.3225e-05	  1.0000e-02	  1.0000e+01	 -2.3225e-05	  0.0000e+00	  0.0000e+00	  0.0000e+00	  0.0000e+00	  0.0000e+00	  0.0000e+00	     -0.0000	      6.4058	     -0.0642	   -999.9990	
     5.73249	  5.0000e-05	  2.7468e-05	  1.0000e-02	  1.0000e+01	 -2.7468e-05	  0.0000e+00	  0.0000e+00	  0.0000e+00	  0.0000e+00	  0.0000e+00	  0.0000e+00	     -0.0000	      6.4946	      0.0246	   -999.9990	
     5.60135	  1.0000e-04	  4.7929e-05	  1.0000e-02	  1.0000e+01	 -4.7929e-05	  0.0000e+00	  0.0000e+00	  0.0000e+00	  0.0000e+00	  0.0000e+00	  0.0000e+00	     -0.0000	      6.7565	      0.2865	   -999.9990	
     5.47895	  2.0000e-04	  8.6914e-05	  1.0000e-02	  9.9999e+00	 -8.6915e-05	  0.0000e+00	  0.0000e+00	  0.0000e+00	  0.0000e+00	  0.0000e+00	  0.0000e+00	     -0.0000	      7.0004	      0.5304	   -999.9990	
     5.41036	  3.0000e-04	  1.2472e-04	  9.9999e-03	  9.9999e+00	 -1.2472e-04	  0.0000e+00	  0.0000e+00	  0.0000e+00	  0.0000e+00	  0.0000e+00	  0.0000e+00	     -0.0000	      7.1366	      0.6666	   -999.9990	
     5.36272	  4.0000e-04	  1.6190e-04	  9.9999e-03	  9.9998e+00	 -1.6190e-04	  0.0000e+00	  0.0000e+00	  0.0000e+00	  0.0000e+00	  0.0000e+00	  0.0000e+00	     -0.0000	      7.2309	      0.7609	   -999.9990	
     5.32625	  5.0000e-04	  1.9868e-04	  9.9999e-03	  9.9998e+00	 -1.9869e-04	  0.0000e+00	  0.0000e+00	  0.0000e+00	  0.0000e+00	  0.0000e+00	  0.0000e+00	     -0.0000	      7.3029	      0.8329	   -999.9990	
     5.21495	  1.0000e-03	  3.7938e-04	  9.9998e-03	  9.9996e+00	 -3.7939e-04	  0.0000e+00	  0.0000e+00	  0.0000e+00	  0.0000e+00	  0.0000e+00	  0.0000e+00	     -0.0000	      7.5205	      1.0505	   -999.9990	
     5.15072	  1.5000e-03	  5.5738e-04	  9.9997e-03	  9.9994e+00	 -5.5739e-04	  0.0000e+00	  0.0000e+00	  0.0000e+00	  0.0000e+00	  0.0000e+00	  0.0000e+00	     -0.0000	      7.6438	      1.1738	   -999.9990	
      5.1053	  2.0000e-03	  7.3398e-04	  9.9996e-03	  9.9993e+00	 -7.3401e-04	  0.0000e+00	  0.0000e+00	  0.0000e+00	  0.0000e+00	  0.0000e+00	  0.0000e+00	     -0.0000	      7.7295	      1.2595	   -999.9990	
     5.07005	  2.5000e-03	  9.0971e-04	  9.9996e-03	  9.9991e+00	 -9.0975e-04	  0.0000e+00	  0.0000e+00	  0.0000e+00	  0.0000e+00	  0.0000e+00	  0.0000e+00	      0.0000	      7.7948	      1.3248	   -999.9990	
     5.04119	  3.0000e-03	  1.0848e-03	  9.9995e-03	  9.9989e+00	 -1.0849e-03	  0.0000e+00	  0.0000e+00	  0.0000e+00	  0.0000e+00	  0.0000e+00	  0.0000e+00	     -0.0000	      7.8473	      1.3773	   -999.9990	
      5.0167	  3.5000e-03	  1.2595e-03	  9.9994e-03	  9.9987e+00	 -1.2596e-03	  0.0000e+00	  0.0000e+00	  0.0000e+00	  0.0000e+00	  0.0000e+00	  0.0000e+00	      0.0000	      7.8910	      1.4210	   -999.9990	
     4.99541	  4.0000e-03	  1.4338e-03	  9.9993e-03	  9.9986e+00	 -1.4339e-03	  0.0000e+00	  0.0000e+00	  0.0000e+00	  0.0000e+00	  0.0000e+00	  0.0000e+00	      0.0000	      7.9283	      1.4583	   -999.9990	
     4.97655	  4.5000e-03	  1.6078e-03	  9.9992e-03	  9.9984e+00	 -1.6080e-03	  0.0000e+00	  0.0000e+00	  0.0000e+00	  0.0000e+00	  0.0000e+00	  0.0000e+00	      0.0000	      7.9608	      1.4908	   -999.9990	
      4.9596	  5.0000e-03	  1.7816e-03	  9.9991e-03	  9.9982e+00	 -1.7818e-03	  0.0000e+00	  0.0000e+00	  0.0000e+00	  0.0000e+00	  0.0000e+00	  0.0000e+00	      0.0000	      7.9894	      1.5194	   -999.9990	
     4.94419	  5.5000e-03	  1.9552e-03	  9.9990e-03	  9.9980e+00	 -1.9554e-03	  0.0000e+00	  0.0000e+00	  0.0000e+00	  0.0000e+00	  0.0000e+00	  0.0000e+00	      0.0000	      8.0149	      1.5449	   -999.9990	
     4.93006	  6.0000e-03	  2.1287e-03	  9.9989e-03	  9.9979e+00	 -2.1289e-03	  0.0000e+00	  0.0000e+00	  0.0000e+00	  0.0000e+00	  0.0000e+00	  0.0000e+00	     -0.0000	      8.0379	      1.5679	   -999.9990	
       4.917	  6.5000e-03	  2.3020e-03	  9.9988e-03	  9.9977e+00	 -2.3022e-03	  0.0000e+00	  0.0000e+00	  0.0000e+00	  0.0000e+00	  0.0000e+00	  0.0000e+00	      0.0000	      8.0587	      1.5887	   -999.9990	
     4.90486	  7.0000e-03	  2.4751e-03	  9.9987e-03	  9.9975e+00	 -2.4754e-03	  0.0000e+00	  0.0000e+00	  0.0000e+00	  0.0000e+00	  0.0000e+00	  0.0000e+00	      0.0000	      8.0777	      1.6077	   -999.9990	
      4.8935	  7.5000e-03	  2.6482e-03	  9.9987e-03	  9.9974e+00	 -2.6486e-03	  0.0000e+00	  0.0000e+00	  0.0000e+00	  0.0000e+00	  0.0000e+00	  0.0000e+00	      0.0000	      8.0951	      1.6251	   -999.9990	
     4.88282	  8.0000e-03	  2.8212e-03	  9.9986e-03	  9.9972e+00	 -2.8216e-03	  0.0000e+00	  0.0000e+00	  0.0000e+00	  0.0000e+00	  0.0000e+00	  0.0000e+00	      0.0000	      8.1112	      1.6412	   -999.9990	
     4.87275	  8.5000e-03	  2.9941e-03	  9.9985e-03	  9.9970e+00	 -2.9945e-03	  0.0000e+00	  0.0000e+00	  0.0000e+00	  0.0000e+00	  0.0000e+00	  0.0000e+00	      0.0000	      8.1261	      1.6561	   -999.9990	
     4.86321	  9.0000e-03	  3.1669e-03	  9.9984e-03	  9.9968e+00	 -3.1674e-03	  0.0000e+00	  0.0000e+00	  0.0000e+00	  0.0000e+00	  0.0000e+00	  0.0000e+00	     -0.0000	      8.1399	      1.6699	   -999.9990	
     4.85414	  9.5000e-03	  3.3396e-03	  9.9983e-03	  9.9967e+00	 -3.3402e-03	  0.0000e+00	  0.0000e+00	  0.0000e+00	  0.0000e+00	  0.0000e+00	  0.0000e+00	     -0.0000	      8.1527	      1.6827	   -999.9990	
     4.84551	  1.0000e-02	  3.5123e-03	  9.9982e-03	  9.9965e+00	 -3.5130e-03	  0.0000e+00	  0.0000e+00	  0.0000e+00	  0.0000e+00	  0.0000e+00	  0.0000e+00	     -0.0000	      8.1647	      1.6947	   -999.9990	
     4.80752	  1.2500e-02	  4.3751e-03	  9.9978e-03	  9.9956e+00	 -4.3761e-03	  0.0000e+00	  0.0000e+00	  0.0000e+00	  0.0000e+00	  0.0000e+00	  0.0000e+00	      0.0000	      8.2145	      1.7445	   -999.9990	
     4.77595	  1.5000e-02	  5.2370e-03	  9.9973e-03	  9.9948e+00	 -5.2384e-03	  0.0000e+00	  0.0000e+00	  0.0000e+00	  0.0000e+00	  0.0000e+00	  0.0000e+00	      0.0000	      8.2518	      1.7818	   -999.9990	
      4.7489	  1.7500e-02	  6.0984e-03	  9.9969e-03	  9.9939e+00	 -6.1003e-03	  0.0000e+00	  0.0000e+00	  0.0000e+00	  0.0000e+00	  0.0000e+00	  0.0000e+00	      0.0000	      8.2806	      1.8106	   -999.9990	
     4.72523	  2.0000e-02	  6.9592e-03	  9.9964e-03	  9.9930e+00	 -6.9617e-03	  0.0000e+00	  0.0000e+00	  0.0000e+00	  0.0000e+00	  0.0000e+00	  0.0000e+00	      0.0000	      8.3031	      1.8331	   -999.9990	
     4.70421	  2.2500e-02	  7.8197e-03	  9.9960e-03	  9.9922e+00	 -7.8229e-03	  0.0000e+00	  0.0000e+00	  0.0000e+00	  0.0000e+00	  0.0000e+00	  0.0000e+00	      0.0000	      8.3209	      1.8509	   -999.9990	
     4.68534	  2.5000e-02	  8.6798e-03	  9.9955e-03	  9.9913e+00	 -8.6837e-03	  0.0000e+00	  0.0000e+00	  0.0000e+00	  0.0000e+00	  0.0000e+00	  0.0000e+00	     -0.0000	      8.3351	      1.8651	   -999.9990	
     4.66825	  2.7500e-02	  9.5396e-03	  9.9951e-03	  9.9905e+00	 -9.5443e-03	  0.0000e+00	  0.0000e+00	  0.0000e+00	  0.0000e+00	  0.0000e+00	  0.0000e+00	     -0.0000	      8.3465	      1.8765	   -999.9990	
     4.65267	  3.0000e-02	  1.0399e-02	  9.9946e-03	  9.9896e+00	 -1.0405e-02	  0.0000e+00	  0.0000e+00	  0.0000e+00	  0.0000e+00	  0.0000e+00	  0.0000e+00	     -0.0000	      8.3556	      1.8856	   -999.9990	
     4.63839	  3.2500e-02	  1.1258e-02	  9.9942e-03	  9.9887e+00	 -1.1265e-02	  0.0000e+00	  0.0000e+00	  0.0000e+00	  0.0000e+00	  0.0000e+00	  0.0000e+00	      0.0000	      8.3629	      1.8929	   -999.9990	
     4.62523	  3.5000e-02	  1.2117e-02	  9.9937e-03	  9.9879e+00	 -1.2124e-02	  0.0000e+00	  0.0000e+00	  0.0000e+00	  0.0000e+00	  0.0000e+00	  0.0000e+00	     -0.0000	      8.3687	      1.8987	   -999.9990	
     4.61306	  3.7500e-02	  1.2975e-02	  9.9933e-03	  9.9870e+00	 -1.2984e-02	  0.0000e+00	  0.0000e+00	  0.0000e+00	  0.0000e+00	  0.0000e+00	  0.0000e+00	     -0.0000	      8.3733	      1.9033	   -999.9990	
     4.60177	  4.0000e-02	  1.3833e-02	  9.9928e-03	  9.9862e+00	 -1.3843e-02	  0.0000e+00	  0.0000e+00	  0.0000e+00	  0.0000e+00	  0.0000e+00	  0.0000e+00	      0.0000	      8.3769	      1.9069	   -999.9990	
     4.59125	  4.2500e-02	  1.4691e-02	  9.9924e-03	  9.9853e+00	 -1.4702e-02	  0.0000e+00	  0.0000e+00	  0.0000e+00	  0.0000e+00	  0.0000e+00	  0.0000e+00	     -0.0000	      8.3796	      1.9096	   -999.9990	
     4.58142	  4.5000e-02	  1.5548e-02	  9.9919e-03	  9.9844e+00	 -1.5560e-02	  0.0000e+00	  0.0000e+00	  0.0000e+00	  0.0000e+00	  0.0000e+00	  0.0000e+00	     -0.0000	      8.3816	      1.9116	   -999.9990	
     4.57221	  4.7500e-02	  1.6404e-02	  9.9915e-03	  9.9836e+00	 -1.6418e-02	  0.0000e+00	  0.0000e+00	  0.0000e+00	  0.0000e+00	  0.0000e+00	  0.0000e+00	     -0.0000	      8.3831	      1.9131	   -999.9990	
     4.56357	  5.0000e-02	  1.7260e-02	  9.9910e-03	  9.9827e+00	 -1.7276e-02	  0.0000e+00	  0.0000e+00	  0.0000e+00	  0.0000e+00	  0.0000e+00	  0.0000e+00	     -0.0000	      8.3841	      1.9141	   -999.9990	
